#form factor calculations
#
# 200 bins for density calculation at every time step
# form factor averged over time steps 
#
# 21.9.2021 by R.Nencini
# POPC 10 % cholesterol
# simulations from  http://doi.org/10.5281/zenodo.159759
#
# q ;  FF(q) ; error of mean over time steps
  0.0000  23.05631555 1.29401165
  0.0010  23.02615644 1.29433736
  0.0020  22.93569361 1.29531523
  0.0030  22.78497054 1.29694746
  0.0040  22.57405970 1.29923773
  0.0050  22.30306251 1.30219127
  0.0060  21.97210933 1.30581487
  0.0070  21.58135946 1.31011697
  0.0080  21.13100105 1.31510778
  0.0090  20.62125117 1.32079937
  0.0100  20.05235573 1.32720585
  0.0110  19.42458955 1.33434361
  0.0120  18.73825640 1.34223164
  0.0130  17.99368911 1.35089191
  0.0140  17.19124983 1.36034997
  0.0150  16.33133042 1.37063583
  0.0160  15.41435311 1.38178525
  0.0170  14.44077162 1.39384165
  0.0180  13.41107307 1.40685941
  0.0190  12.32578122 1.42090921
  0.0200  11.18546241 1.43608782
  0.0210  9.99073648 1.45253672
  0.0220  8.74229896 1.47048098
  0.0230  7.44096938 1.49031950
  0.0240  6.08781078 1.51286632
  0.0250  4.68448033 1.54014319
  0.0260  3.23457406 1.57898359
  0.0270  1.75208611 1.67216645
  0.0280  0.47712698 11.24846226
  0.0290  1.55030850 -1.60718111
  0.0300  3.17328518 -1.61055681
  0.0310  4.86856723 -1.63832422
  0.0320  6.61682149 -1.66847908
  0.0330  8.41360627 -1.69981829
  0.0340  10.25688341 -1.73240538
  0.0350  12.14527421 -1.76641531
  0.0360  14.07763134 -1.80201474
  0.0370  16.05289805 -1.83935457
  0.0380  18.07005280 -1.87857569
  0.0390  20.12808435 -1.91981456
  0.0400  22.22597978 -1.96320713
  0.0410  24.36271817 -2.00889153
  0.0420  26.53726726 -2.05700988
  0.0430  28.74858170 -2.10770947
  0.0440  30.99560208 -2.16114347
  0.0450  33.27725456 -2.21747135
  0.0460  35.59245073 -2.27685886
  0.0470  37.94008778 -2.33947770
  0.0480  40.31904869 -2.40550477
  0.0490  42.72820261 -2.47512092
  0.0500  45.16640520 -2.54850910
  0.0510  47.63249915 -2.62585176
  0.0520  50.12531459 -2.70732729
  0.0530  52.64366964 -2.79310535
  0.0540  55.18637089 -2.88334082
  0.0550  57.75221401 -2.97816597
  0.0560  60.33998422 -3.07768073
  0.0570  62.94845692 -3.18194055
  0.0580  65.57639824 -3.29094165
  0.0590  68.22256560 -3.40460340
  0.0600  70.88570835 -3.52274768
  0.0610  73.56456831 -3.64507549
  0.0620  76.25788038 -3.77114124
  0.0630  78.96437317 -3.90032588
  0.0640  81.68276959 -4.03181081
  0.0650  84.41178743 -4.16455509
  0.0660  87.15014003 -4.29728008
  0.0670  89.89653683 -4.42846578
  0.0680  92.64968402 -4.55636428
  0.0690  95.40828516 -4.67903520
  0.0700  98.17104178 -4.79440653
  0.0710  100.93665400 -4.90036177
  0.0720  103.70382115 -4.99484981
  0.0730  106.47124239 -5.07600928
  0.0740  109.23761732 -5.14229434
  0.0750  112.00164661 -5.19258597
  0.0760  114.76203258 -5.22627326
  0.0770  117.51747986 -5.24329241
  0.0780  120.26669595 -5.24411823
  0.0790  123.00839187 -5.22971051
  0.0800  125.74128273 -5.20142496
  0.0810  128.46408837 -5.16090263
  0.0820  131.17553394 -5.10995321
  0.0830  133.87435047 -5.05044540
  0.0840  136.55927550 -4.98421399
  0.0850  139.22905368 -4.91298847
  0.0860  141.88243729 -4.83834451
  0.0870  144.51818688 -4.76167605
  0.0880  147.13507181 -4.68418468
  0.0890  149.73187082 -4.60688198
  0.0900  152.30737264 -4.53060078
  0.0910  154.86037645 -4.45601171
  0.0920  157.38969254 -4.38364256
  0.0930  159.89414278 -4.31389814
  0.0940  162.37256118 -4.24707957
  0.0950  164.82379442 -4.18340198
  0.0960  167.24670239 -4.12301041
  0.0970  169.64015868 -4.06599355
  0.0980  172.00305109 -4.01239556
  0.0990  174.33428217 -3.96222592
  0.1000  176.63276965 -3.91546771
  0.1010  178.89744697 -3.87208425
  0.1020  181.12726376 -3.83202463
  0.1030  183.32118626 -3.79522809
  0.1040  185.47819783 -3.76162750
  0.1050  187.59729936 -3.73115214
  0.1060  189.67750973 -3.70372986
  0.1070  191.71786624 -3.67928874
  0.1080  193.71742501 -3.65775838
  0.1090  195.67526141 -3.63907082
  0.1100  197.59047046 -3.62316127
  0.1110  199.46216719 -3.60996857
  0.1120  201.28948706 -3.59943553
  0.1130  203.07158629 -3.59150909
  0.1140  204.80764225 -3.58614047
  0.1150  206.49685377 -3.58328511
  0.1160  208.13844152 -3.58290265
  0.1170  209.73164827 -3.58495677
  0.1180  211.27573927 -3.58941505
  0.1190  212.77000251 -3.59624877
  0.1200  214.21374901 -3.60543264
  0.1210  215.60631311 -3.61694454
  0.1220  216.94705272 -3.63076520
  0.1230  218.23534960 -3.64687786
  0.1240  219.47060957 -3.66526790
  0.1250  220.65226275 -3.68592242
  0.1260  221.77976378 -3.70882977
  0.1270  222.85259201 -3.73397910
  0.1280  223.87025173 -3.76135975
  0.1290  224.83227229 -3.79096071
  0.1300  225.73820831 -3.82276991
  0.1310  226.58763984 -3.85677355
  0.1320  227.38017246 -3.89295528
  0.1330  228.11543743 -3.93129534
  0.1340  228.79309182 -3.97176961
  0.1350  229.41281861 -4.01434862
  0.1360  229.97432674 -4.05899643
  0.1370  230.47735125 -4.10566941
  0.1380  230.92165330 -4.15431503
  0.1390  231.30702025 -4.20487046
  0.1400  231.63326566 -4.25726123
  0.1410  231.90022938 -4.31139971
  0.1420  232.10777750 -4.36718368
  0.1430  232.25580240 -4.42449486
  0.1440  232.34422270 -4.48319743
  0.1450  232.37298328 -4.54313674
  0.1460  232.34205519 -4.60413806
  0.1470  232.25143567 -4.66600560
  0.1480  232.10114801 -4.72852177
  0.1490  231.89124156 -4.79144681
  0.1500  231.62179157 -4.85451885
  0.1510  231.29289915 -4.91745453
  0.1520  230.90469112 -4.97995013
  0.1530  230.45731992 -5.04168350
  0.1540  229.95096346 -5.10231661
  0.1550  229.38582497 -5.16149897
  0.1560  228.76213286 -5.21887174
  0.1570  228.08014053 -5.27407259
  0.1580  227.34012623 -5.32674129
  0.1590  226.54239282 -5.37652569
  0.1600  225.68726760 -5.42308820
  0.1610  224.77510208 -5.46611239
  0.1620  223.80627179 -5.50530940
  0.1630  222.78117600 -5.54042414
  0.1640  221.70023749 -5.57124080
  0.1650  220.56390231 -5.59758745
  0.1660  219.37263951 -5.61933966
  0.1670  218.12694086 -5.63642275
  0.1680  216.82732054 -5.64881274
  0.1690  215.47431489 -5.65653592
  0.1700  214.06848207 -5.65966702
  0.1710  212.61040177 -5.65832620
  0.1720  211.10067487 -5.65267489
  0.1730  209.53992310 -5.64291086
  0.1740  207.92878874 -5.62926262
  0.1750  206.26793421 -5.61198346
  0.1760  204.55804175 -5.59134536
  0.1770  202.79981307 -5.56763307
  0.1780  200.99396892 -5.54113838
  0.1790  199.14124875 -5.51215488
  0.1800  197.24241033 -5.48097334
  0.1810  195.29822931 -5.44787757
  0.1820  193.30949883 -5.41314108
  0.1830  191.27702915 -5.37702433
  0.1840  189.20164718 -5.33977263
  0.1850  187.08419607 -5.30161464
  0.1860  184.92553481 -5.26276139
  0.1870  182.72653774 -5.22340579
  0.1880  180.48809415 -5.18372252
  0.1890  178.21110784 -5.14386829
  0.1900  175.89649662 -5.10398230
  0.1910  173.54519189 -5.06418698
  0.1920  171.15813818 -5.02458884
  0.1930  168.73629265 -4.98527947
  0.1940  166.28062465 -4.94633653
  0.1950  163.79211526 -4.90782490
  0.1960  161.27175675 -4.86979772
  0.1970  158.72055215 -4.83229747
  0.1980  156.13951478 -4.79535705
  0.1990  153.52966769 -4.75900079
  0.2000  150.89204323 -4.72324540
  0.2010  148.22768256 -4.68810088
  0.2020  145.53763511 -4.65357141
  0.2030  142.82295812 -4.61965611
  0.2040  140.08471614 -4.58634980
  0.2050  137.32398050 -4.55364371
  0.2060  134.54182886 -4.52152603
  0.2070  131.73934468 -4.48998256
  0.2080  128.91761670 -4.45899720
  0.2090  126.07773849 -4.42855239
  0.2100  123.22080792 -4.39862960
  0.2110  120.34792664 -4.36920961
  0.2120  117.46019963 -4.34027293
  0.2130  114.55873470 -4.31180001
  0.2140  111.64464194 -4.28377155
  0.2150  108.71903330 -4.25616865
  0.2160  105.78302207 -4.22897302
  0.2170  102.83772240 -4.20216706
  0.2180  99.88424882 -4.17573399
  0.2190  96.92371578 -4.14965789
  0.2200  93.95723720 -4.12392367
  0.2210  90.98592597 -4.09851713
  0.2220  88.01089354 -4.07342479
  0.2230  85.03324950 -4.04863384
  0.2240  82.05410113 -4.02413199
  0.2250  79.07455300 -3.99990719
  0.2260  76.09570664 -3.97594742
  0.2270  73.11866011 -3.95224033
  0.2280  70.14450778 -3.92877281
  0.2290  67.17433997 -3.90553048
  0.2300  64.20924278 -3.88249703
  0.2310  61.25029792 -3.85965345
  0.2320  58.29858270 -3.83697700
  0.2330  55.35517004 -3.81443995
  0.2340  52.42112876 -3.79200797
  0.2350  49.49752404 -3.76963803
  0.2360  46.58541825 -3.74727560
  0.2370  43.68587222 -3.72485098
  0.2380  40.79994721 -3.70227422
  0.2390  37.92870799 -3.67942807
  0.2400  35.07322736 -3.65615803
  0.2410  32.23459343 -3.63225780
  0.2420  29.41392083 -3.60744768
  0.2430  26.61236918 -3.58134134
  0.2440  23.83117404 -3.55339320
  0.2450  21.07170159 -3.52281195
  0.2460  18.33555075 -3.48841235
  0.2470  15.62475832 -3.44834935
  0.2480  12.94225148 -3.39961802
  0.2490  10.29297931 -3.33708110
  0.2500  7.68728688 -3.25169372
  0.2510  5.15405151 -3.13009641
  0.2520  2.82066971 -3.02431222
  0.2530  1.69049965 -7.58328541
  0.2540  3.29302186 6.83304120
  0.2550  5.61051110 4.74985005
  0.2560  8.01943533 4.27886697
  0.2570  10.43486396 4.07575789
  0.2580  12.83493415 3.96311789
  0.2590  15.21127648 3.89173573
  0.2600  17.55975978 3.84274752
  0.2610  19.87793071 3.80741948
  0.2620  22.16411332 3.78116871
  0.2630  24.41703677 3.76136541
  0.2640  26.63566234 3.74639573
  0.2650  28.81909558 3.73521603
  0.2660  30.96653848 3.72712254
  0.2670  33.07726203 3.72162398
  0.2680  35.15058957 3.71836733
  0.2690  37.18588647 3.71709249
  0.2700  39.18255342 3.71760356
  0.2710  41.14002200 3.71974998
  0.2720  43.05775166 3.72341381
  0.2730  44.93522764 3.72850096
  0.2740  46.77195953 3.73493488
  0.2750  48.56748020 3.74265209
  0.2760  50.32134504 3.75159875
  0.2770  52.03313147 3.76172820
  0.2780  53.70243846 3.77299892
  0.2790  55.32888629 3.78537303
  0.2800  56.91211630 3.79881502
  0.2810  58.45179069 3.81329072
  0.2820  59.94759245 3.82876643
  0.2830  61.39922517 3.84520821
  0.2840  62.80641303 3.86258116
  0.2850  64.16890067 3.88084888
  0.2860  65.48645314 3.89997290
  0.2870  66.75885584 3.91991222
  0.2880  67.98591445 3.94062284
  0.2890  69.16745487 3.96205730
  0.2900  70.30332317 3.98416431
  0.2910  71.39338550 4.00688836
  0.2920  72.43752802 4.03016938
  0.2930  73.43565686 4.05394243
  0.2940  74.38769800 4.07813741
  0.2950  75.29359719 4.10267885
  0.2960  76.15331986 4.12748573
  0.2970  76.96685102 4.15247134
  0.2980  77.73419517 4.17754328
  0.2990  78.45537613 4.20260346
  0.3000  79.13043700 4.22754826
  0.3010  79.75943994 4.25226873
  0.3020  80.34246611 4.27665096
  0.3030  80.87961549 4.30057655
  0.3040  81.37100672 4.32392318
  0.3050  81.81677696 4.34656535
  0.3060  82.21708172 4.36837527
  0.3070  82.57209470 4.38922381
  0.3080  82.88200757 4.40898168
  0.3090  83.14702982 4.42752060
  0.3100  83.36738856 4.44471474
  0.3110  83.54332829 4.46044204
  0.3120  83.67511074 4.47458578
  0.3130  83.76301462 4.48703602
  0.3140  83.80733540 4.49769112
  0.3150  83.80838510 4.50645921
  0.3160  83.76649205 4.51325947
  0.3170  83.68200062 4.51802346
  0.3180  83.55527104 4.52069612
  0.3190  83.38667907 4.52123670
  0.3200  83.17661582 4.51961935
  0.3210  82.92548740 4.51583361
  0.3220  82.63371475 4.50988446
  0.3230  82.30173327 4.50179231
  0.3240  81.92999261 4.49159253
  0.3250  81.51895635 4.47933487
  0.3260  81.06910173 4.46508260
  0.3270  80.58091934 4.44891144
  0.3280  80.05491282 4.43090834
  0.3290  79.49159860 4.41117012
  0.3300  78.89150553 4.38980202
  0.3310  78.25517460 4.36691619
  0.3320  77.58315865 4.34263015
  0.3330  76.87602200 4.31706532
  0.3340  76.13434018 4.29034551
  0.3350  75.35869955 4.26259561
  0.3360  74.54969703 4.23394023
  0.3370  73.70793974 4.20450262
  0.3380  72.83404464 4.17440356
  0.3390  71.92863825 4.14376053
  0.3400  70.99235628 4.11268687
  0.3410  70.02584327 4.08129121
  0.3420  69.02975230 4.04967697
  0.3430  68.00474458 4.01794194
  0.3440  66.95148917 3.98617806
  0.3450  65.87066258 3.95447127
  0.3460  64.76294844 3.92290139
  0.3470  63.62903716 3.89154222
  0.3480  62.46962555 3.86046154
  0.3490  61.28541651 3.82972132
  0.3500  60.07711863 3.79937788
  0.3510  58.84544587 3.76948213
  0.3520  57.59111719 3.74007985
  0.3530  56.31485621 3.71121193
  0.3540  55.01739086 3.68291472
  0.3550  53.69945298 3.65522033
  0.3560  52.36177805 3.62815693
  0.3570  51.00510476 3.60174909
  0.3580  49.63017470 3.57601811
  0.3590  48.23773203 3.55098234
  0.3600  46.82852307 3.52665750
  0.3610  45.40329601 3.50305701
  0.3620  43.96280056 3.48019232
  0.3630  42.50778758 3.45807323
  0.3640  41.03900877 3.43670827
  0.3650  39.55721634 3.41610502
  0.3660  38.06316265 3.39627050
  0.3670  36.55759991 3.37721162
  0.3680  35.04127989 3.35893564
  0.3690  33.51495354 3.34145074
  0.3700  31.97937075 3.32476666
  0.3710  30.43528006 3.30889555
  0.3720  28.88342836 3.29385302
  0.3730  27.32456067 3.27965947
  0.3740  25.75941993 3.26634195
  0.3750  24.18874679 3.25393667
  0.3760  22.61327959 3.24249252
  0.3770  21.03375427 3.23207622
  0.3780  19.45090455 3.22278003
  0.3790  17.86546237 3.21473349
  0.3800  16.27815863 3.20812236
  0.3810  14.68972476 3.20322001
  0.3820  13.10089554 3.20044238
  0.3830  11.51241455 3.20045012
  0.3840  9.92504504 3.20435267
  0.3850  8.33959349 3.21415728
  0.3860  6.75696637 3.23389037
  0.3870  5.17833061 3.27295258
  0.3880  3.60569257 3.35943544
  0.3890  2.04512342 3.63057434
  0.3900  0.56528492 10.74463713
  0.3910  1.16784228 -2.54796606
  0.3920  2.69430974 -2.78015043
  0.3930  4.23580065 -2.86336908
  0.3940  5.77412722 -2.90379770
  0.3950  7.30590124 -2.92678774
  0.3960  8.82967410 -2.94112796
  0.3970  10.34450356 -2.95064491
  0.3980  11.84963210 -2.95726508
  0.3990  13.34438647 -2.96206067
  0.4000  14.82813922 -2.96567361
  0.4010  16.30029197 -2.96851004
  0.4020  17.76026725 -2.97083810
  0.4030  19.20750432 -2.97284086
  0.4040  20.64145685 -2.97464664
  0.4050  22.06159165 -2.97634725
  0.4060  23.46738792 -2.97800947
  0.4070  24.85833683 -2.97968238
  0.4080  26.23394128 -2.98140239
  0.4090  27.59371580 -2.98319658
  0.4100  28.93718648 -2.98508511
  0.4110  30.26389102 -2.98708287
  0.4120  31.57337873 -2.98920079
  0.4130  32.86521056 -2.99144667
  0.4140  34.13895923 -2.99382595
  0.4150  35.39420923 -2.99634217
  0.4160  36.63055695 -2.99899740
  0.4170  37.84761070 -3.00179254
  0.4180  39.04499082 -3.00472761
  0.4190  40.22232972 -3.00780185
  0.4200  41.37927197 -3.01101397
  0.4210  42.51547435 -3.01436223
  0.4220  43.63060591 -3.01784455
  0.4230  44.72434800 -3.02145858
  0.4240  45.79639435 -3.02520179
  0.4250  46.84645108 -3.02907150
  0.4260  47.87423678 -3.03306496
  0.4270  48.87948248 -3.03717933
  0.4280  49.86193172 -3.04141178
  0.4290  50.82134054 -3.04575948
  0.4300  51.75747751 -3.05021960
  0.4310  52.67012375 -3.05478937
  0.4320  53.55907290 -3.05946607
  0.4330  54.42413110 -3.06424707
  0.4340  55.26511706 -3.06912979
  0.4350  56.08186196 -3.07411175
  0.4360  56.87420946 -3.07919056
  0.4370  57.64201567 -3.08436394
  0.4380  58.38514913 -3.08962971
  0.4390  59.10349074 -3.09498579
  0.4400  59.79693375 -3.10043022
  0.4410  60.46538369 -3.10596115
  0.4420  61.10875830 -3.11157685
  0.4430  61.72698751 -3.11727572
  0.4440  62.32001334 -3.12305625
  0.4450  62.88778982 -3.12891708
  0.4460  63.43028297 -3.13485697
  0.4470  63.94747063 -3.14087478
  0.4480  64.43934247 -3.14696953
  0.4490  64.90589981 -3.15314034
  0.4500  65.34715558 -3.15938648
  0.4510  65.76313421 -3.16570733
  0.4520  66.15387148 -3.17210242
  0.4530  66.51941447 -3.17857140
  0.4540  66.85982141 -3.18511406
  0.4550  67.17516157 -3.19173033
  0.4560  67.46551511 -3.19842027
  0.4570  67.73097301 -3.20518409
  0.4580  67.97163685 -3.21202214
  0.4590  68.18761875 -3.21893491
  0.4600  68.37904121 -3.22592305
  0.4610  68.54603692 -3.23298733
  0.4620  68.68874868 -3.24012871
  0.4630  68.80732918 -3.24734826
  0.4640  68.90194090 -3.25464724
  0.4650  68.97275592 -3.26202705
  0.4660  69.01995575 -3.26948925
  0.4670  69.04373119 -3.27703556
  0.4680  69.04428214 -3.28466785
  0.4690  69.02181741 -3.29238816
  0.4700  68.97655461 -3.30019870
  0.4710  68.90871990 -3.30810183
  0.4720  68.81854782 -3.31610007
  0.4730  68.70628116 -3.32419613
  0.4740  68.57217071 -3.33239284
  0.4750  68.41647509 -3.34069322
  0.4760  68.23946057 -3.34910046
  0.4770  68.04140088 -3.35761787
  0.4780  67.82257700 -3.36624897
  0.4790  67.58327694 -3.37499738
  0.4800  67.32379559 -3.38386692
  0.4810  67.04443450 -3.39286153
  0.4820  66.74550166 -3.40198530
  0.4830  66.42731129 -3.41124246
  0.4840  66.09018368 -3.42063738
  0.4850  65.73444492 -3.43017457
  0.4860  65.36042676 -3.43985862
  0.4870  64.96846635 -3.44969429
  0.4880  64.55890601 -3.45968639
  0.4890  64.13209311 -3.46983987
  0.4900  63.68837976 -3.48015975
  0.4910  63.22812264 -3.49065112
  0.4920  62.75168280 -3.50131913
  0.4930  62.25942542 -3.51216900
  0.4940  61.75171960 -3.52320595
  0.4950  61.22893816 -3.53443527
  0.4960  60.69145742 -3.54586220
  0.4970  60.13965697 -3.55749200
  0.4980  59.57391947 -3.56932989
  0.4990  58.99463045 -3.58138104
  0.5000  58.40217806 -3.59365053
  0.5010  57.79695291 -3.60614336
  0.5020  57.17934779 -3.61886442
  0.5030  56.54975751 -3.63181843
  0.5040  55.90857868 -3.64500997
  0.5050  55.25620948 -3.65844341
  0.5060  54.59304948 -3.67212290
  0.5070  53.91949940 -3.68605234
  0.5080  53.23596094 -3.70023533
  0.5090  52.54283652 -3.71467520
  0.5100  51.84052916 -3.72937488
  0.5110  51.12944218 -3.74433696
  0.5120  50.40997907 -3.75956360
  0.5130  49.68254326 -3.77505649
  0.5140  48.94753796 -3.79081687
  0.5150  48.20536588 -3.80684543
  0.5160  47.45642914 -3.82314228
  0.5170  46.70112900 -3.83970695
  0.5180  45.93986571 -3.85653829
  0.5190  45.17303833 -3.87363450
  0.5200  44.40104449 -3.89099299
  0.5210  43.62428029 -3.90861042
  0.5220  42.84314004 -3.92648262
  0.5230  42.05801613 -3.94460454
  0.5240  41.26929886 -3.96297019
  0.5250  40.47737623 -3.98157263
  0.5260  39.68263381 -4.00040387
  0.5270  38.88545455 -4.01945488
  0.5280  38.08621862 -4.03871547
  0.5290  37.28530326 -4.05817429
  0.5300  36.48308262 -4.07781872
  0.5310  35.67992759 -4.09763490
  0.5320  34.87620570 -4.11760757
  0.5330  34.07228090 -4.13772011
  0.5340  33.26851347 -4.15795439
  0.5350  32.46525988 -4.17829076
  0.5360  31.66287261 -4.19870800
  0.5370  30.86170009 -4.21918318
  0.5380  30.06208650 -4.23969165
  0.5390  29.26437170 -4.26020696
  0.5400  28.46889109 -4.28070073
  0.5410  27.67597550 -4.30114258
  0.5420  26.88595108 -4.32150006
  0.5430  26.09913920 -4.34173847
  0.5440  25.31585635 -4.36182080
  0.5450  24.53641405 -4.38170753
  0.5460  23.76111877 -4.40135650
  0.5470  22.99027184 -4.42072266
  0.5480  22.22416941 -4.43975792
  0.5490  21.46310234 -4.45841081
  0.5500  20.70735620 -4.47662618
  0.5510  19.95721118 -4.49434485
  0.5520  19.21294210 -4.51150312
  0.5530  18.47481839 -4.52803222
  0.5540  17.74310408 -4.54385771
  0.5550  17.01805784 -4.55889860
  0.5560  16.29993301 -4.57306647
  0.5570  15.58897769 -4.58626421
  0.5580  14.88543488 -4.59838466
  0.5590  14.18954259 -4.60930876
  0.5600  13.50153411 -4.61890343
  0.5610  12.82163830 -4.62701881
  0.5620  12.15007997 -4.63348489
  0.5630  11.48708046 -4.63810723
  0.5640  10.83285829 -4.64066160
  0.5650  10.18763018 -4.64088714
  0.5660  9.55161232 -4.63847754
  0.5670  8.92502216 -4.63306967
  0.5680  8.30808091 -4.62422881
  0.5690  7.70101701 -4.61142905
  0.5700  7.10407121 -4.59402743
  0.5710  6.51750399 -4.57122915
  0.5720  5.94160679 -4.54204079
  0.5730  5.37671949 -4.50520695
  0.5740  4.82325851 -4.45912507
  0.5750  4.28176391 -4.40173336
  0.5760  3.75298198 -4.33037369
  0.5770  3.23801844 -4.24165950
  0.5780  2.73864198 -4.13148580
  0.5790  2.25793524 -3.99571436
  0.5800  1.80182736 -3.83362364
  0.5810  1.38307707 -3.66291237
